# EHPower estimated for Planck15 cosmology at a=1.00 with nbodykit
# k, P(k)
1.000000000000000082e-05 4.465674732438380801e+01
1.009257536193750584e-05 4.505632917667541193e+01
1.018600774363881975e-05 4.545948639731346219e+01
1.028030507899538109e-05 4.586625097705981347e+01
1.037547537534697958e-05 4.627665519289253382e+01
1.047152671416164412e-05 4.669073161056549992e+01
1.056846725172182243e-05 4.710851308719123409e+01
1.066630521981710498e-05 4.753003277384743086e+01
1.076504892644317619e-05 4.795532411820617824e+01
1.086470675650722014e-05 4.838442086718622193e+01
1.096528717254007193e-05 4.881735706963051058e+01
1.106679871541475409e-05 4.925416707900598112e+01
1.116925000507166042e-05 4.969488555612812064e+01
1.127264974125066012e-05 5.013954747191041150e+01
1.137700670422976303e-05 5.058818811013748729e+01
1.148232975557073736e-05 5.104084307026369061e+01
1.158862783887151206e-05 5.149754827023589598e+01
1.169590998052577230e-05 5.195833994934268674e+01
1.180418529048936333e-05 5.242325467108804560e+01
1.191346296305380772e-05 5.289232932609078830e+01
1.202375227762718679e-05 5.336560113501055724e+01
1.213506259952203703e-05 5.384310765149948708e+01
1.224740338075054131e-05 5.432488676517981219e+01
1.236078416082730430e-05 5.481097670464926352e+01
1.247521456757932778e-05 5.530141604051221549e+01
1.259070431796349902e-05 5.579624368843809634e+01
1.270726321889185842e-05 5.629549891224790059e+01
1.282490116806429215e-05 5.679922132702739646e+01
1.294362815480892271e-05 5.730745090226812977e+01
1.306345426093051571e-05 5.782022796503746775e+01
1.318438966156651343e-05 5.833759320317597030e+01
1.330644462605097791e-05 5.885958766852331081e+01
1.342962951878678250e-05 5.938625278017396170e+01
1.355395480012564177e-05 5.991763032776107423e+01
1.367943102725626458e-05 6.045376247476961140e+01
1.380606885510100618e-05 6.099469176188006259e+01
1.393387903722054513e-05 6.154046111034102040e+01
1.406287242672695776e-05 6.209111382537187751e+01
1.419305997720548139e-05 6.264669359959702888e+01
1.432445274364453450e-05 6.320724451650931286e+01
1.445706188337452403e-05 6.377281105396552618e+01
1.459089865701515684e-05 6.434343808771193096e+01
1.472597442943182291e-05 6.491917089494279480e+01
1.486230067070056410e-05 6.550005515788944876e+01
1.499988895708197904e-05 6.608613696744164656e+01
1.513875097200440651e-05 6.667746282680171532e+01
1.527889850705594667e-05 6.727407965517120658e+01
1.542034346298566078e-05 6.787603479146928009e+01
1.556309785071431702e-05 6.848337599808662901e+01
1.570717379235421981e-05 6.909615146467075419e+01
1.585258352223847006e-05 6.971440981194562880e+01
1.599933938796004759e-05 7.033820009556623631e+01
1.614745385142022106e-05 7.096757181000687353e+01
1.629693948988666157e-05 7.160257489248328966e+01
1.644780899706165279e-05 7.224325972691214304e+01
1.660007518415988284e-05 7.288967714790337027e+01
1.675375098099622431e-05 7.354187844478921932e+01
1.690884943708388197e-05 7.419991536568979029e+01
1.706538372274239997e-05 7.486384012161391865e+01
1.722336713021593168e-05 7.553370539059653765e+01
1.738281307480216183e-05 7.620956432187428220e+01
1.754373509599134554e-05 7.689147054009673354e+01
1.770614685861609462e-05 7.757947814957641697e+01
1.787006215401159583e-05 7.827364173857552032e+01
1.803549490118693210e-05 7.897401638363250242e+01
1.820245914800691373e-05 7.968065765392584865e+01
1.837096907238485323e-05 8.039362161567672160e+01
1.854103898348673105e-05 8.111296483659259593e+01
1.871268332294613904e-05 8.183874439034833870e+01
1.888591666609050631e-05 8.257101786110816022e+01
1.906075372317900057e-05 8.330984334808863423e+01
1.923720934065153586e-05 8.405527947016138057e+01
1.941529850238937440e-05 8.480738537049634829e+01
1.959503633098771906e-05 8.556622072124852707e+01
1.977643808903973736e-05 8.633184572828425019e+01
1.995951918043249141e-05 8.710432113595032888e+01
2.014429515165520399e-05 8.788370823188661518e+01
2.033078169311928828e-05 8.867006885188038723e+01
2.051899464049058497e-05 8.946346538476348087e+01
2.070894997603430152e-05 9.026396077735519441e+01
2.090066382997205377e-05 9.107161853944724328e+01
2.109415248185143358e-05 9.188650274883312363e+01
2.128943236192867147e-05 9.270867805638414438e+01
2.148652005256367620e-05 9.353820969116884498e+01
2.168543228962803391e-05 9.437516346561810110e+01
2.188618596392639379e-05 9.521960578073768033e+01
2.208879812263059986e-05 9.607160363136566161e+01
2.229328597072734825e-05 9.693122461147770252e+01
2.249966687247899037e-05 9.779853691953807981e+01
2.270795835289829857e-05 9.867360936390088000e+01
2.291817809923648279e-05 9.955651136825660785e+01
2.313034396248498680e-05 1.004473129771287745e+02
2.334447395889159582e-05 1.013460848614192287e+02
2.356058627149015092e-05 1.022528983240026719e+02
2.377869925164445634e-05 1.031678253053704140e+02
2.399883142060686749e-05 1.040909383893254301e+02
2.422100147109090251e-05 1.050223108087275961e+02
2.444522826885841602e-05 1.059620164512889886e+02
2.467153085432187033e-05 1.069101298654230021e+02
2.489992844416104011e-05 1.078667262661434449e+02
2.513044043295466215e-05 1.088318815410162017e+02
2.536308639482763661e-05 1.098056722561658063e+02
2.559788608511302764e-05 1.107881756623332308e+02
2.583485944202946978e-05 1.117794697009876472e+02
2.607402658837451904e-05 1.127796330104945213e+02
2.631540783323321316e-05 1.137887449323362432e+02
2.655902367370273237e-05 1.148068855173893894e+02
2.680489479663271664e-05 1.158341355322564681e+02
2.705304208038222211e-05 1.168705764656560007e+02
2.730348659659247632e-05 1.179162905348675139e+02
2.755624961197601508e-05 1.189713606922334748e+02
2.781135259012290913e-05 1.200358706317214370e+02
2.806881719332319272e-05 1.211099047955421781e+02
2.832866528440615165e-05 1.221935483808262148e+02
2.859091892859718891e-05 1.232868873463623487e+02
2.885560039539132601e-05 1.243900084193934248e+02
2.912273216044406851e-05 1.255029991024725859e+02
2.939233690748028626e-05 1.266259476803821826e+02
2.966443753022025788e-05 1.277589432271125389e+02
2.993905713432352671e-05 1.289020756129019674e+02
3.021621903935129653e-05 1.300554355113414715e+02
3.049594678074644903e-05 1.312191144065408821e+02
3.077826411183190122e-05 1.323932046003576488e+02
3.106319500582800408e-05 1.335777992196922241e+02
3.135076365788805428e-05 1.347729922238463871e+02
3.164099448715267766e-05 1.359788784119458853e+02
3.193391213882375556e-05 1.371955534304315165e+02
3.222954148625703665e-05 1.384231137806146421e+02
3.252790763307404756e-05 1.396616568262986675e+02
3.282903591529421033e-05 1.409112808014715483e+02
3.313295190348605540e-05 1.421720848180625296e+02
3.343968140493837706e-05 1.434441688737690015e+02
3.374925046585208375e-05 1.447276338599540395e+02
3.406168537355173324e-05 1.460225815696117593e+02
3.437701265871753904e-05 1.473291147054031001e+02
3.469525909763864066e-05 1.486473368877648795e+02
3.501645171448658744e-05 1.499773526630881122e+02
3.534061778361024224e-05 1.513192675119699970e+02
3.566778483185152203e-05 1.526731878575373003e+02
3.599798064088329696e-05 1.540392210738461074e+02
3.633123324956828221e-05 1.554174754943531127e+02
3.666757095633975627e-05 1.568080604204614588e+02
3.700702232160499316e-05 1.582110861301453042e+02
3.734961617017026360e-05 1.596266638866470373e+02
3.769538159368831295e-05 1.610549059472520241e+02
3.804434795312912245e-05 1.624959255721426814e+02
3.839654488127293728e-05 1.639498370333283503e+02
3.875200228522629318e-05 1.654167556236543248e+02
3.911075034896208531e-05 1.668967976658915973e+02
3.947281953588242570e-05 1.683900805219058441e+02
3.983824059140524468e-05 1.698967226019054806e+02
4.020704454557552405e-05 1.714168433737749808e+02
4.057926271569993546e-05 1.729505633724869540e+02
4.095492670900632739e-05 1.744980042095987187e+02
4.133406842532736264e-05 1.760592885828308454e+02
4.171672005980979730e-05 1.776345402857330669e+02
4.210291410564813387e-05 1.792238842174319018e+02
4.249268335684354311e-05 1.808274463924645659e+02
4.288606091098911167e-05 1.824453539507020992e+02
4.328308017208007375e-05 1.840777351673561952e+02
4.368377485335011792e-05 1.857247194630739671e+02
4.408817898013466338e-05 1.873864374141256235e+02
4.449632689275990636e-05 1.890630207626763308e+02
4.490825324945859221e-05 1.907546024271501324e+02
4.532399302931357677e-05 1.924613165126865795e+02
4.574358153522784242e-05 1.941832983216866637e+02
4.616705439692199859e-05 1.959206843644504659e+02
4.659444757396035780e-05 1.976736123699117229e+02
4.702579735880421159e-05 1.994422212964632877e+02
4.746114037989332282e-05 2.012266513428760959e+02
4.790051360475686766e-05 2.030270439593188598e+02
4.834395434315224828e-05 2.048435418584690808e+02
4.879150025023300962e-05 2.066762890267219746e+02
4.924318932974693091e-05 2.085254307355009189e+02
4.969905993726288234e-05 2.103911135526627731e+02
5.015915078342747703e-05 2.122734853540027586e+02
5.062350093725285312e-05 2.141726953348632208e+02
5.109214982943394617e-05 2.160888940218410426e+02
5.156513725569646485e-05 2.180222332845953304e+02
5.204250338017678951e-05 2.199728663477633006e+02
5.252428873883227594e-05 2.219409478029750744e+02
5.301053424288302803e-05 2.239266336209737176e+02
5.350128118228657606e-05 2.259300811638443349e+02
5.399657122924373244e-05 2.279514491973455961e+02
5.449644644173689233e-05 2.299908979033481273e+02
5.500094926710206642e-05 2.320485888923859648e+02
5.551012254563290449e-05 2.341246852163105814e+02
5.602400951421874933e-05 2.362193513810598233e+02
5.654265381001566404e-05 2.383327533595325463e+02
5.706609947415259410e-05 2.404650586045813725e+02
5.759439095547085529e-05 2.426164360621122569e+02
5.812757311429815333e-05 2.447870561842982227e+02
5.866569122625865326e-05 2.469770909429115022e+02
5.920879098611726219e-05 2.491867138427668920e+02
5.975691851165946037e-05 2.514160999352806130e+02
6.031012034760815764e-05 2.536654258321512145e+02
6.086844346957572563e-05 2.559348697191538804e+02
6.143193528805258776e-05 2.582246113700537080e+02
6.200064365243388516e-05 2.605348321606433615e+02
6.257461685508212447e-05 2.628657150828961448e+02
6.315390363542825391e-05 2.652174447592449837e+02
6.373855318410986644e-05 2.675902074569799538e+02
6.432861514714906443e-05 2.699841911027750712e+02
6.492413963016779703e-05 2.723995852973356477e+02
6.552517720264218817e-05 2.748365813301700769e+02
6.613177890219757642e-05 2.772953721944948029e+02
6.674399623894192190e-05 2.797761526022598559e+02
6.736188119983947795e-05 2.822791189993054672e+02
6.798548625312613662e-05 2.848044695806510731e+02
6.861486435276432060e-05 2.873524043059111364e+02
6.925006894293933221e-05 2.899231249148425036e+02
6.989115396259832518e-05 2.925168349430291528e+02
7.053817385003021854e-05 2.951337397376952936e+02
7.119118354748794864e-05 2.977740464736535273e+02
7.185023850585476690e-05 3.004379641693940357e+02
7.251539468935248259e-05 3.031257037033044526e+02
7.318670858029327703e-05 3.058374778300285470e+02
7.386423718387682383e-05 3.085735011969670154e+02
7.454803803303049268e-05 3.113339903609158910e+02
7.523816919329437132e-05 3.141191638048426285e+02
7.593468926775282684e-05 3.169292419548111184e+02
7.663765740201041094e-05 3.197644471970442055e+02
7.734713328921378952e-05 3.226250038951295664e+02
7.806317717512153975e-05 3.255111384073759382e+02
7.878584986321956508e-05 3.284230791043120234e+02
7.951521271988372711e-05 3.313610563863287553e+02
8.025132767959182228e-05 3.343253027014792451e+02
8.099425725018235547e-05 3.373160525634198166e+02
8.174406451816187220e-05 3.403335425695026970e+02
8.250081315406304519e-05 3.433780114190251993e+02
8.326456741785081802e-05 3.464496999316260144e+02
8.403539216437855774e-05 3.495488510658352084e+02
8.481335284889631690e-05 3.526757099377838358e+02
8.559851553260831836e-05 3.558305238400646999e+02
8.639094688828295612e-05 3.590135422607512510e+02
8.719071420591361819e-05 3.622250169025726905e+02
8.799788539843382790e-05 3.654652017022538075e+02
8.881252900748353254e-05 3.687343528500087473e+02
8.963471420922884312e-05 3.720327288091970672e+02
9.046451082023728525e-05 3.753605903361454352e+02
9.130198930340575588e-05 3.787182005001306493e+02
9.214722077394347610e-05 3.821058247035235809e+02
9.300027700541178334e-05 3.855237307021066044e+02
9.386123043581841817e-05 3.889721886255517234e+02
9.473015417376797289e-05 3.924514709980643943e+02
9.560712200467121221e-05 3.959618527592048167e+02
9.649220839700978312e-05 3.995036112848711696e+02
9.738548850866023067e-05 4.030770264084579253e+02
9.828703819327524603e-05 4.066823804421824775e+02
9.919693400672605001e-05 4.103199581985912232e+02
1.001152532136026052e-04 4.139900470122342995e+02
1.010420737937740420e-04 4.176929367615152273e+02
1.019774744490116431e-04 4.214289198907252967e+02
1.029215346096707545e-04 4.251982914322431952e+02
1.038743344414361355e-04 4.290013490289226183e+02
1.048359548521295967e-04 4.328383929566572306e+02
1.058064774985797079e-04 4.367097261471227512e+02
1.067859847935560710e-04 4.406156542107054293e+02
1.077745599127678312e-04 4.445564854596118494e+02
1.087722868019259394e-04 4.485325309311603519e+02
1.097792501838717956e-04 4.525441044112598092e+02
1.107955355657717970e-04 4.565915224580755307e+02
1.118212292463781457e-04 4.606751044258794536e+02
1.128564183233561846e-04 4.647951724890868945e+02
1.139011907006817195e-04 4.689520516664880461e+02
1.149556350961046937e-04 4.731460698456654654e+02
1.160198410486825907e-04 4.773775578076012494e+02
1.170938989263839712e-04 4.816468492514802620e+02
1.181778999337624697e-04 4.859542808196846408e+02
1.192719361197008436e-04 4.903001921229805475e+02
1.203761003852276784e-04 4.946849257659009709e+02
1.214904864914066117e-04 4.991088273723288466e+02
1.226151890672973178e-04 5.035722456112666805e+02
1.237503036179913977e-04 5.080755322228147861e+02
1.248959265327226993e-04 5.126190420443437006e+02
1.260521550930515525e-04 5.172031330368623685e+02
1.272190874811257263e-04 5.218281663115933497e+02
1.283968227880183225e-04 5.264945061567476614e+02
1.295854610221411308e-04 5.312025200644964116e+02
1.307851031177374550e-04 5.359525787581527538e+02
1.319958509434534632e-04 5.407450562195559769e+02
1.332178073109875193e-04 5.455803297166537504e+02
1.344510759838211001e-04 5.504587798312995801e+02
1.356957616860300522e-04 5.553807904872500103e+02
1.369519701111772999e-04 5.603467489783721476e+02
1.382198079312869758e-04 5.653570459970519551e+02
1.394993828059041500e-04 5.704120756628240088e+02
1.407908033912359553e-04 5.755122355511979322e+02
1.420941793493775516e-04 5.806579267226965158e+02
1.434096213576257204e-04 5.858495537521146161e+02
1.447372411178761604e-04 5.910875247579746201e+02
1.460771513661086570e-04 5.963722514322016650e+02
1.474294658819603977e-04 6.017041490700098620e+02
1.487942994983881384e-04 6.070836366000027056e+02
1.501717681114184057e-04 6.125111366144791418e+02
1.515619886899893700e-04 6.179870753999634871e+02
1.529650792858839258e-04 6.235118829679428245e+02
1.543811590437531138e-04 6.290859930858199505e+02
1.558103482112338143e-04 6.347098433080807354e+02
1.572527681491603868e-04 6.403838750076811266e+02
1.587085413418688729e-04 6.461085334076420850e+02
1.601777914075985885e-04 6.518842676128642779e+02
1.616606431089896397e-04 6.577115306421625291e+02
1.631572223636762833e-04 6.635907794605070649e+02
1.646676562549798432e-04 6.695224750114878134e+02
1.661920730427005879e-04 6.755070822499965288e+02
1.677306021740079995e-04 6.815450701751176439e+02
1.692833742944334721e-04 6.876369118632411528e+02
1.708505212589644376e-04 6.937830845013940007e+02
1.724321761432408132e-04 6.999840694207803153e+02
1.740284732548540419e-04 7.062403521305416234e+02
1.756395481447540368e-04 7.125524223517379596e+02
1.772655376187584489e-04 7.189207740515363412e+02
1.789065797491687815e-04 7.253459054776150197e+02
1.805628138864968501e-04 7.318283191927935150e+02
1.822343806712967346e-04 7.383685221098652391e+02
1.839214220461071856e-04 7.449670255266471486e+02
1.856240812675051326e-04 7.516243451612471063e+02
1.873425029182709486e-04 7.583410011875429291e+02
1.890768329196648701e-04 7.651175182708690272e+02
1.908272185438184259e-04 7.719544256039192760e+02
1.925938084262407901e-04 7.788522569428633915e+02
1.943767525784391935e-04 7.858115506436639635e+02
1.961762024006578117e-04 7.928328496986089249e+02
1.979923106947346402e-04 7.999167017730569569e+02
1.998252316770756818e-04 8.070636592423767297e+02
2.016751209917508076e-04 8.142742792290999887e+02
2.035421357237112111e-04 8.215491236402854156e+02
2.054264344121269656e-04 8.288887592050676858e+02
2.073281770638503755e-04 8.362937575124258274e+02
2.092475251670035234e-04 8.437646950491445068e+02
2.111846417046900392e-04 8.513021532379693781e+02
2.131396911688354559e-04 8.589067184759678639e+02
2.151128395741557994e-04 8.665789821730805897e+02
2.171042544722544666e-04 8.743195407908676771e+02
2.191141049658486110e-04 8.821289958814363672e+02
2.211425617231312438e-04 8.900079541265788521e+02
2.231897969922620837e-04 8.979570273770762014e+02
2.252559846159940407e-04 9.059768326921944208e+02
2.273413000464355503e-04 9.140679923793651369e+02
2.294459203599499776e-04 9.222311340340456809e+02
2.315700242721908996e-04 9.304668905797453817e+02
2.337137921532784145e-04 9.387759003082418303e+02
2.358774060431163442e-04 9.471588069199588062e+02
2.380610496668487551e-04 9.556162595645123474e+02
2.402649084504618717e-04 9.641489128814212108e+02
2.424891695365304599e-04 9.727574270409855899e+02
2.447340218001077040e-04 9.814424677853146477e+02
2.469996558647643246e-04 9.902047064695130985e+02
2.492862641187766387e-04 9.990448201030228574e+02
2.515940407314613391e-04 1.007963491391101456e+03
2.539231816696648002e-04 1.016961408776446092e+03
2.562738847144043343e-04 1.026039266480970127e+03
2.586463494776612367e-04 1.035197764547688394e+03
2.610407774193321782e-04 1.044437608882753693e+03
2.634573718643364515e-04 1.053759511297608924e+03
2.658963380198815112e-04 1.063164189551263462e+03
2.683578829928863203e-04 1.072652367392672659e+03
2.708422158075712827e-04 1.082224774603246260e+03
2.733495474232060371e-04 1.091882147039449819e+03
2.758800907520217232e-04 1.101625226675496606e+03
2.784340606772937941e-04 1.111454761646154338e+03
2.810116740715870782e-04 1.121371506289623085e+03
2.836131498151715498e-04 1.131376221190492970e+03
2.862387088146091320e-04 1.141469673222781466e+03
2.888885740215131593e-04 1.151652635593045943e+03
2.915629704514786013e-04 1.161925887883540554e+03
2.942621252031906386e-04 1.172290216095435881e+03
2.969862674777094748e-04 1.182746412692090871e+03
2.997356285979315489e-04 1.193295276642350927e+03
3.025104420282334898e-04 1.203937613463888056e+03
3.053109433942977286e-04 1.214674235266560572e+03
3.081373705031189019e-04 1.225505960795785313e+03
3.109899633631986893e-04 1.236433615475920533e+03
3.138689642049269715e-04 1.247458031453646754e+03
3.167746175011494701e-04 1.258580047641333294e+03
3.197071699879278344e-04 1.269800509760383648e+03
3.226668706854930410e-04 1.281120270384562446e+03
3.256539709193885827e-04 1.292540188983262397e+03
3.286687243418134224e-04 1.304061131964738706e+03
3.317113869531616204e-04 1.315683972719279154e+03
3.347822171237604255e-04 1.327409591662300727e+03
3.378814756158077508e-04 1.339238876277355757e+03
3.410094256055189546e-04 1.351172721159067351e+03
3.441663327054725178e-04 1.363212028055944529e+03
3.473524649871642146e-04 1.375357705913070731e+03
3.505680930037714002e-04 1.387610670914688626e+03
3.538134898131282849e-04 1.399971846526627132e+03
3.570889310009109472e-04 1.412442163538570412e+03
3.603946947040396207e-04 1.425022560106169749e+03
3.637310616342983097e-04 1.437713981792972390e+03
3.670983151021695642e-04 1.450517381612145073e+03
3.704967410408927637e-04 1.463433720067995864e+03
3.739266280307459089e-04 1.476463965197275684e+03
3.773882673235480489e-04 1.489609092610223342e+03
3.808819528673926431e-04 1.502870085531374116e+03
3.844079813316093647e-04 1.516247934840086600e+03
3.879666521319537491e-04 1.529743639110782624e+03
